plane_index_A,plane_index_B,chain,res_i_A,res_j_A,res_i_B,res_j_B,dot,angle_unsigned_deg,angle_signed_deg,dihedral_deg
0,1,A,10,11,11,12,0.313160,71.750232,108.249768,110.835683
1,2,A,11,12,12,13,0.492604,60.488146,-119.511854,136.123341
2,3,A,12,13,13,14,0.127207,82.691762,-97.308238,103.890619
3,4,A,13,14,14,15,0.299102,72.596299,-107.403701,127.906953
4,5,A,14,15,15,16,0.375670,67.934294,-112.065706,133.005370
5,6,A,15,16,16,17,0.358091,69.016967,-110.983033,153.306740
6,7,A,16,17,17,18,0.641122,50.124462,-129.875538,-176.459629
7,8,A,17,18,18,19,0.567522,55.422423,124.577577,134.225620
8,9,A,18,19,19,20,0.742993,42.013041,-137.986959,-161.423910
9,10,A,19,20,20,21,0.047619,87.270589,87.270589,-81.060732
10,11,A,20,21,21,22,0.723478,43.657632,-136.342368,-177.908427
11,12,A,21,22,22,23,0.569275,55.300344,-124.699656,138.437284
12,13,A,22,23,23,24,0.428740,64.612346,-115.387654,135.687201
13,14,A,23,24,24,25,0.300950,72.485337,107.514663,113.750301
14,15,A,24,25,25,26,0.299197,72.590606,107.409394,108.561546
15,16,A,25,26,26,27,0.358766,68.975598,68.975598,67.894966
16,17,A,26,27,27,28,0.018458,88.942400,-88.942400,-88.709687
17,18,A,27,28,28,29,0.092290,84.704634,95.295366,-105.918639
18,19,A,28,29,29,30,0.013355,89.234772,89.234772,-87.697357
19,20,A,29,30,30,31,0.128258,82.631049,97.368951,-135.984362
20,21,A,30,31,31,32,0.094011,84.605613,95.394387,-110.031769
21,22,A,31,32,32,33,0.177518,79.774780,100.225220,-158.086016
22,23,A,32,33,33,34,0.028532,88.365030,88.365030,-78.731048
23,24,A,33,34,34,35,0.004127,89.763522,90.236478,-90.853916
24,25,A,34,35,35,36,0.054921,86.851679,93.148321,121.568177
25,26,A,35,36,36,37,0.256023,75.165770,104.834230,-163.544726
26,27,A,36,37,37,38,0.008381,89.519784,90.480216,-92.793620
27,28,A,37,38,38,39,0.133677,82.317891,97.682109,-123.515860
28,29,A,38,39,39,40,0.329623,70.754126,109.245874,-171.550182
29,30,A,39,40,40,41,0.182859,79.463686,100.536314,106.961508
30,31,A,40,41,41,42,0.008232,89.528336,-89.528336,-88.701734
31,32,A,41,42,42,43,0.281673,73.639919,-106.360081,141.821580
32,33,A,42,43,43,44,0.135202,82.229707,-97.770293,101.408916
33,34,A,43,44,44,45,0.516875,58.877103,-121.122897,-174.947359
34,35,A,44,45,45,46,0.521579,58.561789,-121.438211,147.976933
35,36,A,45,46,46,47,0.344709,69.835969,-110.164031,118.867791
36,37,A,46,47,47,48,0.367301,68.450750,-111.549250,128.559486
37,38,A,47,48,48,49,0.730914,43.036893,-136.963107,157.380853
38,39,A,48,49,49,50,0.025665,88.529328,91.470672,95.717332
39,40,A,49,50,50,51,0.593045,53.626628,-126.373372,-172.444152
40,41,A,50,51,51,52,0.217895,77.414584,-77.414584,48.206588
41,42,A,51,52,52,53,0.288377,73.239170,106.760830,-151.021179
42,43,A,52,53,53,54,0.231619,76.607593,103.392407,119.854804
43,44,A,53,54,54,55,0.021101,88.790900,88.790900,86.877228
44,45,A,54,55,55,56,0.296439,72.756171,-72.756171,-6.478554
45,46,A,55,56,56,57,0.424719,64.867144,115.132856,172.952976
46,47,A,56,57,57,58,0.316290,71.561320,108.438680,-164.534402
47,48,A,57,58,58,59,0.337539,70.273006,109.726994,172.766578
48,49,A,58,59,59,60,0.137028,82.124109,97.875891,104.110144
49,50,A,59,60,60,61,0.022966,88.684014,-91.315986,97.942641
50,51,A,60,61,61,62,0.658885,48.785107,48.785107,-33.327627
51,52,A,61,62,62,63,0.183314,79.437171,100.562829,-176.389983
52,53,A,62,63,63,64,0.846986,32.114676,147.885324,170.568619
53,54,A,63,64,64,65,0.583480,54.304350,-125.695650,137.693925
54,55,A,64,65,65,66,0.080362,85.390639,-94.609361,132.997452
55,56,A,65,66,66,67,0.653300,49.209103,130.790897,135.081730
56,57,A,66,67,67,68,0.349407,69.548976,110.451024,110.747907
57,58,A,67,68,68,69,0.051341,87.057055,92.942945,100.186255
58,59,A,68,69,69,70,0.134688,82.259403,-97.740597,-151.149504
59,60,A,69,70,70,71,0.006480,89.628720,89.628720,88.296360
60,61,A,70,71,71,72,0.454848,62.944867,62.944867,36.470335
61,62,A,71,72,72,73,0.989825,8.180295,171.819705,173.099124
62,63,A,72,73,73,74,0.022832,88.691727,-91.308273,93.930517
63,64,A,73,74,74,75,0.529050,58.058678,-121.941322,-137.618237
64,65,A,74,75,75,76,0.574672,54.923326,125.076674,128.770764
65,66,A,75,76,76,77,0.400471,66.392405,113.607595,161.329779
66,67,A,76,77,77,78,0.140255,81.937394,98.062606,138.078234
67,68,A,77,78,78,79,0.074186,85.745525,94.254475,-126.702354
68,69,A,78,79,79,80,0.147319,81.528432,98.471568,-151.022970
69,70,A,79,80,80,81,0.127852,82.654533,97.345467,-116.010581
70,71,A,80,81,81,82,0.114123,83.446961,96.553039,-121.158114
71,72,A,81,82,82,83,0.207719,78.011275,101.988725,-147.761149
72,73,A,82,83,83,84,0.023009,88.681557,91.318443,-98.742223
73,74,A,83,84,84,85,0.097594,84.399373,95.600627,-113.382455
74,75,A,84,85,85,86,0.144104,81.714584,98.285416,-152.232535
75,76,A,85,86,86,87,0.124295,82.859981,97.140019,-131.033546
76,77,A,86,87,87,88,0.293585,72.927305,107.072695,132.931943
77,78,A,87,88,88,89,0.131586,82.438772,-97.561228,140.804505
78,79,A,88,89,89,90,0.309264,71.985102,-108.014898,-145.794894
79,80,A,89,90,90,91,0.334778,70.440959,70.440959,49.039815
80,81,A,90,91,91,92,0.069384,86.021365,-93.978635,-167.325978
81,82,A,91,92,92,93,0.202095,78.340478,-101.659522,110.881550
82,83,A,92,93,93,94,0.253918,75.290522,104.709478,151.149700
83,84,A,93,94,94,95,0.027373,88.431471,91.568529,-97.897640
84,85,A,94,95,95,96,0.123012,82.934057,97.065943,-134.426502
85,86,A,95,96,96,97,0.146914,81.551897,98.448103,-162.202613
86,87,A,96,97,97,98,0.112778,83.524548,96.475452,-113.283046
87,88,A,97,98,98,99,0.121432,83.025237,96.974763,-131.694435
88,89,A,98,99,99,100,0.034058,88.048268,91.951732,-106.421754
89,90,A,99,100,100,101,0.021289,88.780154,88.780154,67.072817
90,91,A,100,101,101,102,0.020713,88.813148,91.186852,-98.802935
91,92,A,101,102,102,103,0.139509,81.980555,98.019445,114.164626
92,93,A,102,103,103,104,0.082617,85.260981,94.739019,-108.317223
93,94,A,103,104,104,105,0.157025,80.965746,99.034254,-123.044835
94,95,A,104,105,105,106,0.162004,80.676783,99.323217,-179.466049
95,96,A,105,106,106,107,0.047591,87.272224,92.727776,-106.500956
96,97,A,106,107,107,108,0.058189,86.664131,93.335869,-157.090742
97,98,A,107,108,108,109,0.151118,81.308254,98.691746,-141.821628
98,99,A,108,109,109,110,0.182390,79.491005,100.508995,-137.058366
99,100,A,109,110,110,111,0.080887,85.360450,94.639550,-110.588737
100,101,A,110,111,111,112,0.132647,82.377449,97.622551,-124.742519
101,102,A,111,112,112,113,0.283760,73.515249,106.484751,148.110378
102,103,A,112,113,113,114,0.094307,84.588562,95.411438,118.725947
103,104,A,113,114,114,115,0.591502,53.736318,-53.736318,-35.123686
104,105,A,114,115,115,116,0.060961,86.504997,-86.504997,81.533740
105,106,A,115,116,116,117,0.506440,59.573029,120.426971,120.784895
106,107,A,116,117,117,118,0.265552,74.600222,-74.600222,-7.544022
107,108,A,117,118,118,119,0.274480,74.068946,-74.068946,-30.235617
108,109,A,118,119,119,120,0.605241,52.753843,-127.246157,-168.948949
109,110,A,119,120,120,121,0.204674,78.189579,-101.810421,-112.363197
110,111,A,120,121,121,122,0.257210,75.095436,104.904564,142.626577
111,112,A,121,122,122,123,0.006667,89.617995,90.382005,90.706055
112,113,A,122,123,123,124,0.087827,84.961399,-95.038601,-102.106281
113,114,A,123,124,124,125,0.055445,86.821604,-93.178396,-96.151771
114,115,A,124,125,125,126,0.115831,83.348421,-96.651579,110.753683
115,116,A,125,126,126,127,0.003252,89.813673,-90.186327,91.520565
116,117,A,126,127,127,128,0.672868,47.711231,-132.288769,161.281952
117,118,A,127,128,128,129,0.533024,57.789968,-122.210032,-152.498605
118,119,A,128,129,129,130,0.174841,79.930572,-79.930572,-49.211951
119,120,A,129,130,130,131,0.891342,26.957661,-153.042339,177.191685
120,121,A,130,131,131,132,0.112782,83.524273,-96.475727,115.747549
121,122,A,131,132,132,133,0.008297,89.524620,-90.475380,-95.371666
122,123,A,132,133,133,134,0.555447,56.258460,-123.741540,143.899441
123,124,A,133,134,134,135,0.609453,52.450011,-127.549989,-146.745239
124,125,A,134,135,135,136,0.482960,61.121118,-118.878882,176.950983
125,126,A,135,136,136,137,0.001727,89.901029,-89.901029,89.617857
126,127,A,136,137,137,138,0.094459,84.579790,-95.420210,106.747612
127,128,A,137,138,138,139,0.284586,73.465874,-106.534126,-117.844448
128,129,A,138,139,139,140,0.430690,64.488611,64.488611,32.634151
129,130,A,139,140,140,141,0.094597,84.571874,95.428126,96.953584
130,131,A,140,141,141,142,0.011042,89.367344,90.632656,91.219513
131,132,A,141,142,142,143,0.025532,88.536951,-88.536951,81.861634
132,133,A,142,143,143,144,0.209075,77.931850,-102.068150,-146.839572
133,134,A,143,144,144,145,0.033013,88.108126,91.891874,91.941459
134,135,A,144,145,145,146,0.491467,60.562973,60.562973,50.211369
135,136,A,145,146,146,147,0.237668,76.251073,103.748927,109.675903
136,137,A,146,147,147,148,0.066942,86.161661,-93.838339,106.487482
137,138,A,147,148,148,149,0.843913,32.444293,-147.555707,-179.349205
138,139,A,148,149,149,150,0.056801,86.743777,93.256223,93.628473
139,140,A,149,150,150,151,0.227350,76.858902,76.858902,-55.683354
140,141,A,150,151,151,152,0.275755,73.993007,73.993007,72.410674
141,142,A,151,152,152,153,0.433115,64.334593,64.334593,61.739262
142,143,A,152,153,153,154,0.189783,79.059853,100.940147,-145.827611
143,144,A,153,154,154,155,0.037977,87.823549,92.176451,-104.162138
144,145,A,154,155,155,156,0.186161,79.271197,100.728803,-121.913542
145,146,A,155,156,156,157,0.091162,84.769521,95.230479,-142.947944
146,147,A,156,157,157,158,0.099005,84.318101,95.681899,-112.618415
147,148,A,157,158,158,159,0.076534,85.610658,94.389342,-127.638996
148,149,A,158,159,159,160,0.076594,85.607191,94.392809,-123.852922
149,150,A,159,160,160,161,0.078231,85.513088,94.486912,-106.664506
150,151,A,160,161,161,162,0.150921,81.319706,98.680294,-134.988049
151,152,A,161,162,162,163,0.083310,85.221162,94.778838,-109.172893
152,153,A,162,163,163,164,0.203674,78.248089,101.751911,-149.982670
153,154,A,163,164,164,165,0.096074,84.486840,95.513160,-132.236448
154,155,A,164,165,165,166,0.316567,71.544569,108.455431,146.451468
155,156,A,165,166,166,167,0.303017,72.361094,107.638906,129.127840
156,157,A,166,167,167,168,0.009821,89.437279,89.437279,88.838339
157,158,A,167,168,168,169,0.531071,57.922156,-122.077844,-160.459042
158,159,A,168,169,169,170,0.333353,70.527586,109.472414,112.046287
159,160,A,169,170,170,171,0.052357,86.998815,-86.998815,78.896272
160,161,A,170,171,171,172,0.203496,78.258549,-101.741451,111.877001
161,162,A,171,172,172,173,0.296865,72.730610,-107.269390,162.965291
162,163,A,172,173,173,174,0.053932,86.908396,93.091604,93.251257
163,164,A,173,174,174,175,0.088915,84.898793,-95.101207,139.919564
164,165,A,174,175,175,176,0.074870,85.706255,-94.293745,124.369154
165,166,A,175,176,176,177,0.387849,67.179270,-112.820730,142.692747
166,167,A,176,177,177,178,0.411004,65.732093,-114.267907,123.512757
167,168,A,177,178,178,179,0.038739,87.779841,-87.779841,80.516494
168,169,A,178,179,179,180,0.435358,64.191903,64.191903,-35.170437
169,170,A,179,180,180,181,0.900640,25.757663,-154.242337,179.507233
170,171,A,180,181,181,182,0.115289,83.379702,-96.620298,-139.589242
171,172,A,181,182,182,183,0.243942,75.880684,104.119316,109.386373
172,173,A,182,183,183,184,0.395061,66.730231,-113.269769,174.139808
173,174,A,183,184,184,185,0.440711,63.850768,116.149232,118.797204
174,175,A,184,185,185,186,0.133498,82.328204,-97.671796,140.514596
175,176,A,185,186,186,187,0.208737,77.951653,-102.048347,-112.333121
176,177,A,186,187,187,188,0.480905,61.255449,-118.744551,-175.919606
177,178,A,187,188,188,189,0.279393,73.776006,-106.223994,130.648305
178,179,A,188,189,189,190,0.225931,76.942354,76.942354,67.856077
179,180,A,189,190,190,191,0.755184,40.958558,139.041442,178.909700
180,181,A,190,191,191,192,0.754268,41.038593,-138.961407,-178.711205
181,182,A,191,192,192,193,0.434405,64.252590,-115.747410,155.920447
182,183,A,192,193,193,194,0.848749,31.924147,-148.075853,-172.261194
183,184,A,193,194,194,195,0.488139,60.781659,-119.218341,144.048084
184,185,A,194,195,195,196,0.180874,79.579324,-100.420676,106.264680
185,186,A,195,196,196,197,0.102089,84.140517,95.859483,-137.270083
186,187,A,196,197,197,198,0.207823,78.005224,101.994776,166.244166
187,188,A,197,198,198,199,0.609759,52.427930,52.427930,38.327449
188,189,A,198,199,199,200,0.219968,77.292872,-102.707128,-117.841664
189,190,A,199,200,200,201,0.226252,76.923503,-103.076497,-153.749174
190,191,A,200,201,201,202,0.285642,73.402786,-106.597214,143.437698
191,192,A,201,202,202,203,0.642243,50.040713,-129.959287,149.630964
192,193,A,202,203,203,204,0.357850,69.031810,-110.968190,131.084305
193,194,A,203,204,204,205,0.347382,69.672715,110.327285,113.911827
194,195,A,204,205,205,206,0.082726,85.254754,-94.745246,113.558765
195,196,A,205,206,206,207,0.926165,22.155251,-157.844749,167.911273
196,197,A,206,207,207,208,0.026307,88.492526,91.507474,-159.448911
197,198,A,207,208,208,209,0.726395,43.414941,-136.585059,160.110454
198,199,A,208,209,209,210,0.580404,54.521069,-125.478931,157.274708
199,200,A,209,210,210,211,0.498242,60.116252,-119.883748,134.903477
200,201,A,210,211,211,212,0.395130,66.725914,-113.274086,124.065892
201,202,A,211,212,212,213,0.207924,77.999297,77.999297,77.996853
202,203,A,212,213,213,214,0.075680,85.659691,94.340309,97.450186
203,204,A,213,214,214,215,0.000997,89.942854,90.057146,90.147992
204,205,A,214,215,215,216,0.105015,83.971996,-83.971996,-82.032674
205,206,A,215,216,216,217,0.422360,65.016319,65.016319,64.340908
206,207,A,216,217,217,218,0.364722,68.609547,111.390453,153.863484
207,208,A,217,218,218,219,0.304425,72.276409,107.723591,116.991564
208,209,A,218,219,219,220,0.120180,83.097531,96.902469,111.026253
209,210,A,219,220,220,221,0.283028,73.558980,-106.441020,-126.859319
210,211,A,220,221,221,222,0.099220,84.305766,84.305766,-31.878821
211,212,A,221,222,222,223,0.511755,59.219228,-120.780772,133.517640
212,213,A,222,223,223,224,0.862945,30.351110,-149.648890,172.674030
213,214,A,223,224,224,225,0.028978,88.339468,91.660532,95.754888
214,215,A,224,225,225,226,0.148432,81.463913,-81.463913,-39.001967
215,216,A,225,226,226,227,0.309449,71.973968,-71.973968,-37.850300
216,217,A,226,227,227,228,0.280702,73.697918,106.302082,165.939300
217,218,A,227,228,228,229,0.149949,81.376016,98.623984,104.270553
218,219,A,228,229,229,230,0.265956,74.576205,105.423795,106.369302
219,220,A,229,230,230,231,0.179158,79.679257,79.679257,76.670918
220,221,A,230,231,231,232,0.222327,77.154256,-102.845744,165.913623
221,222,A,231,232,232,233,0.076828,85.593761,94.406239,-149.025994
222,223,A,232,233,233,234,0.033234,88.095498,91.904502,107.691998
223,224,A,233,234,234,235,0.078960,85.471200,94.528800,-118.598317
224,225,A,234,235,235,236,0.109966,83.686672,96.313328,-159.401616
225,226,A,235,236,236,237,0.197987,78.580729,101.419271,-156.599081
226,227,A,236,237,237,238,0.069070,86.039430,93.960570,-105.193813
227,228,A,237,238,238,239,0.175815,79.873905,100.126095,-138.595521
228,229,A,238,239,239,240,0.195082,78.750468,101.249532,151.993767
229,230,A,239,240,240,241,0.173711,79.996321,100.003679,108.102769
230,231,A,240,241,241,242,0.017972,88.970211,-88.970211,-86.662043
231,232,A,241,242,242,243,0.277291,73.901381,-106.098619,-150.737473
232,233,A,242,243,243,244,0.086761,85.022731,-94.977269,-122.907677
233,234,A,243,244,244,245,0.443833,63.651326,-116.348674,-172.222472
234,235,A,244,245,245,246,0.633725,50.674483,-129.325517,165.937844
235,236,A,245,246,246,247,0.458386,62.716980,-117.283020,178.061843
236,237,A,246,247,247,248,0.358179,69.011596,110.988404,153.650041
237,238,A,247,248,248,249,0.227241,76.865327,103.134673,123.292739
238,239,A,248,249,249,250,0.341140,70.053685,109.946315,114.730615
239,240,A,249,250,250,251,0.429879,64.540132,-115.459868,141.972379
240,241,A,250,251,251,252,0.332964,70.551236,-109.448764,134.624280
241,242,A,251,252,252,253,0.263523,74.720771,-105.279229,112.703561
242,243,A,252,253,253,254,0.139157,82.000956,-82.000956,50.904836
243,244,A,253,254,254,255,0.145194,81.651480,98.348520,-140.599172
244,245,A,254,255,255,256,0.456748,62.822512,117.177488,117.471286
245,246,A,255,256,256,257,0.180472,79.602767,-100.397233,124.686787
246,247,A,256,257,257,258,0.231523,76.613245,-76.613245,29.012661
247,248,A,257,258,258,259,0.132127,82.407453,-82.407453,32.997099
248,249,A,258,259,259,260,0.413784,65.557249,-114.442751,-115.607547
249,250,A,259,260,260,261,0.132262,82.399652,97.600348,146.082478
250,251,A,260,261,261,262,0.136327,82.164631,-97.835369,-101.675070
251,252,A,261,262,262,263,0.315992,71.579267,-71.579267,11.299125
252,253,A,262,263,263,264,0.084141,85.173348,-94.826652,114.661853
253,254,A,263,264,264,265,0.206814,78.064275,-101.935725,108.596651
254,255,A,264,265,265,266,0.397517,66.576932,-66.576932,-7.660309
255,256,A,265,266,266,267,0.193158,78.862841,101.137159,119.725454
256,257,A,266,267,267,268,0.290769,73.096016,106.903984,143.040231
257,258,A,267,268,268,269,0.174872,79.928794,100.071206,-138.943138
258,259,A,268,269,269,270,0.028098,88.389863,91.610137,-173.554543
259,260,A,269,270,270,271,0.187465,79.195133,100.804867,168.857613
260,261,A,270,271,271,272,0.039246,87.750778,87.750778,85.226318
261,262,A,271,272,272,273,0.585985,54.127417,-54.127417,-42.419676
262,263,A,272,273,273,274,0.245595,75.782987,-75.782987,-3.374239
263,264,A,273,274,274,275,0.700925,45.498728,-134.501272,178.145701
264,265,A,274,275,275,276,0.335405,70.402844,-109.597156,146.034191
265,266,A,275,276,276,277,0.714831,44.370619,-135.629381,168.101985
266,267,A,276,277,277,278,0.091108,84.772663,-95.227337,-97.794623
267,268,A,277,278,278,279,0.372269,68.144352,111.855648,144.792924
268,269,A,278,279,279,280,0.179990,79.630812,79.630812,72.712244
269,270,A,279,280,280,281,0.201815,78.356874,-101.643126,-112.559668
270,271,A,280,281,281,282,0.098003,84.375813,-95.624187,120.777653
271,272,A,281,282,282,283,0.125955,82.764080,97.235920,97.930791
272,273,A,282,283,283,284,0.342730,69.956686,110.043314,161.137216
273,274,A,283,284,284,285,0.308007,72.060862,107.939138,153.882188
274,275,A,284,285,285,286,0.308022,72.059954,107.940046,145.353671
275,276,A,285,286,286,287,0.329007,70.791469,70.791469,-17.836697
276,277,A,286,287,287,288,0.034992,87.994709,87.994709,-32.617608
277,278,A,287,288,288,289,0.147269,81.531306,98.468694,98.873364
278,279,A,288,289,289,290,0.235906,76.354952,103.645048,-145.660197
279,280,A,289,290,290,291,0.298970,72.604249,72.604249,-57.370976
280,281,A,290,291,291,292,0.121917,82.997240,97.002760,119.899716
281,282,A,291,292,292,293,0.020173,88.844092,88.844092,-86.833039
282,283,A,292,293,293,294,0.234966,76.410380,103.589620,119.958733
283,284,A,293,294,294,295,0.083540,85.207903,85.207903,84.538548
284,285,A,294,295,295,296,0.167904,80.334023,-80.334023,-72.246183
285,286,A,295,296,296,297,0.223556,77.082004,-77.082004,-23.610777
286,287,A,296,297,297,298,0.123801,82.888483,97.111517,-130.037259
287,288,A,297,298,298,299,0.254469,75.257895,104.742105,-162.016481
288,289,A,298,299,299,300,0.058595,86.640842,86.640842,-57.088321
289,290,A,299,300,300,301,0.073319,85.795369,94.204631,-126.034302
290,291,A,300,301,301,302,0.086079,85.061910,94.938090,-122.850623
291,292,A,301,302,302,303,0.129359,82.567438,97.432562,-140.432981
292,293,A,302,303,303,304,0.014774,89.153489,90.846511,-92.361272
293,294,A,303,304,304,305,0.281371,73.657923,106.342077,-155.899779
294,295,A,304,305,305,306,0.106857,83.865850,96.134150,-155.679764
295,296,A,305,306,306,307,0.040955,87.652804,92.347196,-105.118673
296,297,A,306,307,307,308,0.231380,76.621676,103.378324,-166.246388
297,298,A,307,308,308,309,0.148814,81.441778,81.441778,-64.445263
298,299,A,308,309,309,310,0.177701,79.764107,100.235893,168.427401
299,300,A,309,310,310,311,0.120860,83.058268,96.941732,-113.702108
300,301,A,310,311,311,312,0.859066,30.788139,-30.788139,0.562689
301,302,A,311,312,312,313,0.147986,81.489757,81.489757,80.023953
302,303,A,312,313,313,314,0.207849,78.003650,-78.003650,-47.908750
303,304,A,313,314,314,315,0.251385,75.440524,-104.559476,-114.661346
304,305,A,314,315,315,316,0.286381,73.358578,73.358578,65.772880
305,306,A,315,316,316,317,0.365213,68.579325,111.420675,147.398156
306,307,A,316,317,317,318,0.345429,69.791995,69.791995,56.610683
307,308,A,317,318,318,319,0.269835,74.345581,-105.654419,163.471715
308,309,A,318,319,319,320,0.357531,69.051381,69.051381,62.212640
309,310,A,319,320,320,321,0.855018,31.238324,-148.761676,-159.779574
310,311,A,320,321,321,322,0.749715,41.434297,-138.565703,-165.774955
311,312,A,321,322,322,323,0.433933,64.282585,-115.717415,163.787124
312,313,A,322,323,323,324,0.216546,77.493767,102.506233,106.050455
313,314,A,323,324,324,325,0.345155,69.808718,-110.191282,132.779074
314,315,A,324,325,325,326,0.590696,53.793555,53.793555,11.057911
315,316,A,325,326,326,327,0.377516,67.820104,112.179896,168.315000
316,317,A,326,327,327,328,0.314479,71.670656,108.329344,129.905952
317,318,A,327,328,328,329,0.164526,80.530303,-99.469697,-140.770926
318,319,A,328,329,329,330,0.124799,82.830845,-82.830845,55.207795
319,320,A,329,330,330,331,0.292829,72.972625,107.027375,175.845977
320,321,A,330,331,331,332,0.072796,85.825382,94.174618,-136.128890
321,322,A,331,332,332,333,0.101968,84.147501,95.852499,-112.839074
322,323,A,332,333,333,334,0.271580,74.241720,105.758280,-169.750745
323,324,A,333,334,334,335,0.027086,88.447909,88.447909,76.879305
324,325,A,334,335,335,336,0.252996,75.345134,75.345134,-39.588135
325,326,A,335,336,336,337,0.229558,76.728958,76.728958,-10.395350
326,327,A,336,337,337,338,0.026199,88.498745,88.498745,88.441057
327,328,A,337,338,338,339,0.064768,86.286473,93.713527,-155.680926
328,329,A,338,339,339,340,0.018207,88.956741,91.043259,-94.371232
329,330,A,339,340,340,341,0.156754,80.981486,99.018514,147.324066
330,331,A,340,341,341,342,0.176368,79.841700,100.158300,-130.020035
331,332,A,341,342,342,343,0.024403,88.601698,91.398302,-96.398410
332,333,A,342,343,343,344,0.124767,82.832682,97.167318,-143.328682
333,334,A,343,344,344,345,0.196412,78.672796,101.327204,-153.721841
334,335,A,344,345,345,346,0.040843,87.659239,87.659239,-82.118933
335,336,A,345,346,346,347,0.026175,88.500092,91.499908,-95.759350
336,337,A,346,347,347,348,0.043763,87.491773,92.508227,94.582991
337,338,A,347,348,348,349,0.896241,26.331746,26.331746,5.460944
338,339,A,348,349,349,350,0.188076,79.159489,-100.840511,-140.977926
339,340,A,349,350,350,351,0.382533,67.509351,-112.490649,146.402480
340,341,A,350,351,351,352,0.176883,79.811761,-100.188239,106.654894
341,342,A,351,352,352,353,0.304445,72.275203,107.724797,154.589923
342,343,A,352,353,353,354,0.125908,82.766813,97.233187,106.060870
343,344,A,353,354,354,355,0.664913,48.324384,48.324384,-24.643567
344,345,A,354,355,355,356,0.635087,50.573561,-129.426439,-179.061296
345,346,A,355,356,356,357,0.261339,74.850486,-74.850486,-54.680391
346,347,A,356,357,357,358,0.387984,67.170856,-112.829144,141.334283
347,348,A,357,358,358,359,0.095507,84.519471,-95.480529,104.850356
348,349,A,358,359,359,360,0.798061,37.054626,-142.945374,-178.534845
349,350,A,359,360,360,361,0.879648,28.400119,-151.599881,161.837927
350,351,A,360,361,361,362,0.206626,78.075271,-78.075271,54.576652
351,352,A,361,362,362,363,0.671227,47.838136,-132.161864,148.832446
352,353,A,362,363,363,364,0.310414,71.915788,-71.915788,44.824809
353,354,A,363,364,364,365,0.770910,39.564290,39.564290,-21.415248
354,355,A,364,365,365,366,0.828837,34.020544,-145.979456,172.449383
355,356,A,365,366,366,367,0.426366,64.762865,-115.237135,124.903646
356,357,A,366,367,367,368,0.108594,83.765708,96.234292,-132.922453
357,358,A,367,368,368,369,0.250736,75.478920,-75.478920,-54.700356
358,359,A,368,369,369,370,0.920134,23.054292,-156.945708,-157.757639
359,360,A,369,370,370,371,0.140526,81.921744,-98.078256,107.806171
360,361,A,370,371,371,372,0.049376,87.169792,-87.169792,75.496908
361,362,A,371,372,372,373,0.740301,42.242961,-137.757039,-160.454680
362,363,A,372,373,373,374,0.189110,79.099135,-100.900865,-108.856469
363,364,A,373,374,374,375,0.233299,76.508619,103.491381,137.154152
364,365,A,374,375,375,376,0.076256,85.626607,94.373393,97.702639
365,366,A,375,376,376,377,0.009330,89.465412,-90.534588,-90.718191
366,367,A,376,377,377,378,0.005639,89.676911,-89.676911,88.036639
367,368,A,377,378,378,379,0.002301,89.868157,-89.868157,87.737331
368,369,A,378,379,379,380,0.664549,48.352275,-131.647725,-173.746389
369,370,A,379,380,380,381,0.590934,53.776710,-126.223290,-159.610577
370,371,A,380,381,381,382,0.491454,60.563784,119.436216,123.763386
371,372,A,381,382,382,383,0.533592,57.751526,-122.248474,140.397615
372,373,A,382,383,383,384,0.205587,78.136121,-101.863879,156.505053
373,374,A,383,384,384,385,0.088668,84.913037,-95.086963,-102.766632
374,375,A,384,385,385,386,0.702517,45.370703,-134.629297,160.053495
375,376,A,385,386,386,387,0.004769,89.726777,-89.726777,45.619007
376,377,A,386,387,387,388,0.511635,59.227227,120.772773,128.967683
377,378,A,387,388,388,389,0.177737,79.762030,-79.762030,30.073593
378,379,A,388,389,389,390,0.213614,77.665793,-102.334207,111.386292
379,380,A,389,390,390,391,0.028822,88.348389,-88.348389,83.935452
380,381,A,390,391,391,392,0.132891,82.363287,-97.636713,-106.004866
381,382,A,391,392,392,393,0.614611,52.076340,-127.923660,145.409238
382,383,A,392,393,393,394,0.644904,49.841531,-130.158469,-158.770910
383,384,A,393,394,394,395,0.755646,40.918180,139.081820,143.299949
384,385,A,394,395,395,396,0.847316,32.079120,-147.920880,-179.961319
385,386,A,395,396,396,397,0.045085,87.415959,92.584041,99.445262
386,387,A,396,397,397,398,0.300012,72.541662,107.458338,169.545356
387,388,A,397,398,398,399,0.187639,79.184951,100.815049,129.833777
388,389,A,398,399,399,400,0.278508,73.828821,-106.171179,-141.238891
389,390,A,399,400,400,401,0.149016,81.430078,98.569922,99.489836
390,391,A,400,401,401,402,0.035389,87.971941,92.028059,-158.975063
391,392,A,401,402,402,403,0.385278,67.339018,-67.339018,-60.908882
392,393,A,402,403,403,404,0.133719,82.315427,97.684573,115.598884
393,394,A,403,404,404,405,0.409945,65.798627,65.798627,32.375319
394,395,A,404,405,405,406,0.021186,88.786044,88.786044,-86.495497
395,396,A,405,406,406,407,0.076033,85.639395,85.639395,80.694377
396,397,A,406,407,407,408,0.522744,58.483525,121.516475,123.054941
397,398,A,407,408,408,409,0.189341,79.085652,-100.914348,150.441214
398,399,A,408,409,409,410,0.058676,86.636174,-93.363826,110.544934
399,400,A,409,410,410,411,0.249417,75.556974,-75.556974,28.301774
400,401,A,410,411,411,412,0.157002,80.967077,-99.032923,-107.056494
401,402,A,411,412,412,413,0.142369,81.815040,81.815040,64.488424
402,403,A,412,413,413,414,0.106154,83.906320,83.906320,-66.209006
403,404,A,413,414,414,415,0.279083,73.794491,106.205509,-168.678124
404,405,A,414,415,415,416,0.040140,87.699545,92.300455,-97.011580
405,406,A,415,416,416,417,0.285874,73.388912,106.611088,-147.411701
406,407,A,416,417,417,418,0.076834,85.593380,94.406620,-103.270883
407,408,A,417,418,418,419,0.005290,89.696900,90.303100,96.572006
408,409,A,418,419,419,420,0.025566,88.535043,88.535043,-83.700829
409,410,A,419,420,420,421,0.034530,88.021155,88.021155,73.584273
410,411,A,420,421,421,422,0.144297,81.703445,98.296555,-119.620657
411,412,A,421,422,422,423,0.161064,80.731318,99.268682,-179.402211
412,413,A,422,423,423,424,0.133108,82.350743,97.649257,-137.337736
413,414,A,423,424,424,425,0.140918,81.899047,98.100953,-124.226356
414,415,A,424,425,425,426,0.104182,84.019940,95.980060,-110.930823
415,416,A,425,426,426,427,0.110789,83.639219,96.360781,-119.424883
416,417,A,426,427,427,428,0.113628,83.475499,96.524501,-121.936206
417,418,A,427,428,428,429,0.157020,80.966054,99.033946,-150.776887
418,419,A,428,429,429,430,0.128876,82.595379,97.404621,-133.303509
419,420,A,429,430,430,431,0.053086,86.956987,93.043013,101.141024
420,421,A,430,431,431,432,0.388549,67.135744,67.135744,9.885046
421,422,A,431,432,432,433,0.715531,44.313290,-135.686710,-164.108871
422,423,A,432,433,433,434,0.497963,60.134672,-119.865328,173.381616
423,424,A,433,434,434,435,0.239426,76.147359,-76.147359,-26.728471
424,425,A,434,435,435,436,0.255325,75.207151,-104.792849,-114.290092
425,426,A,435,436,436,437,0.374518,68.005503,-68.005503,-6.804616
426,427,A,436,437,437,438,0.076300,85.624091,-85.624091,74.574514
427,428,A,437,438,438,439,0.064911,86.278238,-86.278238,74.296426
428,429,A,438,439,439,440,0.009523,89.454381,-90.545619,93.636500
429,430,A,439,440,440,441,0.041777,87.605641,-87.605641,59.623384
430,431,A,440,441,441,442,0.452543,63.093067,-116.906933,158.406288
431,432,A,441,442,442,443,0.437682,64.043943,-64.043943,-4.076523
432,433,A,442,443,443,444,0.306270,72.165389,107.834611,-176.415417
433,434,A,443,444,444,445,0.092792,84.675737,84.675737,82.828340
434,435,A,444,445,445,446,0.113936,83.457769,-83.457769,68.163356
435,436,A,445,446,446,447,0.009195,89.473167,-90.526833,-90.937592
436,437,A,446,447,447,448,0.293987,72.903205,107.096795,136.659976
437,438,A,447,448,448,449,0.081734,85.311740,94.688260,132.079608
438,439,A,448,449,449,450,0.064972,86.274777,93.725223,-134.333448
439,440,A,449,450,450,451,0.056933,86.736242,93.263758,-106.281682
440,441,A,450,451,451,452,0.194178,78.803301,101.196699,-144.161703
441,442,A,451,452,452,453,0.039986,87.708351,92.291649,-98.459226
442,443,A,452,453,453,454,0.241992,75.995890,104.004110,-161.657373
443,444,A,453,454,454,455,0.065802,86.227117,93.772883,-162.317239
444,445,A,454,455,455,456,0.129830,82.540245,97.459755,-157.772619
445,446,A,455,456,456,457,0.021884,88.746065,91.253935,-121.566200
446,447,A,456,457,457,458,0.220935,77.236029,102.763971,-174.720812
447,448,A,457,458,458,459,0.253522,75.313956,75.313956,69.859500
448,449,A,458,459,459,460,0.260337,74.909941,-74.909941,18.138094
449,450,A,459,460,460,461,0.238619,76.194966,76.194966,76.182560
450,451,A,460,461,461,462,0.074068,85.752353,-85.752353,-85.286411
451,452,A,461,462,462,463,0.368180,68.396571,68.396571,12.859126
452,453,A,462,463,463,464,0.468274,62.077659,117.922341,124.416352
453,454,A,463,464,464,465,0.247420,75.675094,-75.675094,-10.295740
454,455,A,464,465,465,466,0.193479,78.844113,101.155887,-130.870850
455,456,A,465,466,466,467,0.240869,76.062188,103.937812,169.799595
456,457,A,466,467,467,468,0.022430,88.714730,91.285270,-112.665381
457,458,A,467,468,468,469,0.004919,89.718132,89.718132,-86.275776
458,459,A,468,469,469,470,0.182312,79.495568,100.504432,-133.567658
459,460,A,469,470,470,471,0.152112,81.250675,98.749325,-150.702749
460,461,A,470,471,471,472,0.204735,78.186034,101.813966,176.758627
461,462,A,471,472,472,473,0.065595,86.239005,86.239005,-65.258994
462,463,A,472,473,473,474,0.080359,85.390770,94.609230,-124.407185
463,464,A,473,474,474,475,0.106521,83.885191,96.114809,136.350778
464,465,A,474,475,475,476,0.009261,89.469378,90.530622,-93.402572
465,466,A,475,476,476,477,0.079437,85.443792,94.556208,-136.730384
466,467,A,476,477,477,478,0.136086,82.178603,97.821397,-155.147808
467,468,A,477,478,478,479,0.290258,73.126598,73.126598,18.256253
468,469,A,478,479,479,480,0.207800,78.006562,78.006562,65.648365
469,470,A,479,480,480,481,0.410097,65.789042,65.789042,65.504605
470,471,A,480,481,481,482,0.253141,75.336514,-75.336514,-71.456543
471,472,A,481,482,482,483,0.155176,81.072973,98.927027,-119.286605
472,473,A,482,483,483,484,0.420928,65.106809,-114.893191,150.940093
473,474,A,483,484,484,485,0.718494,44.069703,-135.930297,174.017655
474,475,A,484,485,485,486,0.682172,46.986429,-133.013571,-165.135069
475,476,A,485,486,486,487,0.010574,89.394126,89.394126,-86.963476
476,477,A,486,487,487,488,0.110305,83.667091,96.332909,-140.679422
477,478,A,487,488,488,489,0.050755,87.090727,92.909273,-107.943133
478,479,A,488,489,489,490,0.131473,82.445309,97.554691,-150.492626
479,480,A,489,490,490,491,0.096373,84.469639,95.530361,-118.634184
480,481,A,490,491,491,492,0.228804,76.773339,103.226661,165.468384
481,482,A,491,492,492,493,0.035590,87.960417,92.039583,139.275216
482,483,A,492,493,493,494,0.100148,84.252308,95.747692,-118.572126
483,484,A,493,494,494,495,0.063375,86.366436,93.633564,-105.476377
484,485,A,494,495,495,496,0.177686,79.764990,100.235010,-144.928031
485,486,A,495,496,496,497,0.005950,89.659067,90.340933,-91.923266
486,487,A,496,497,497,498,0.201361,78.383418,101.616582,-151.108453
487,488,A,497,498,498,499,0.075348,85.678779,94.321221,-119.741186
488,489,A,498,499,499,500,0.181258,79.556959,100.443041,-151.479453
489,490,A,499,500,500,501,0.122617,82.956838,97.043162,-132.841972
490,491,A,500,501,501,502,0.100462,84.234222,95.765778,-127.114734
491,492,A,501,502,502,503,0.489308,60.704872,119.295128,155.504756
492,493,A,502,503,503,504,0.353337,69.308426,110.691574,159.659405
493,494,A,503,504,504,505,0.287974,73.263302,106.736698,137.176631
494,495,A,504,505,505,506,0.107925,83.804307,83.804307,80.959584
495,496,A,505,506,506,507,0.311501,71.850278,-71.850278,-14.165561
496,497,A,506,507,507,508,0.607977,52.556621,-127.443379,138.595805
497,498,A,507,508,508,509,0.516845,58.879160,-121.120840,-169.384685
498,499,A,508,509,509,510,0.527939,58.133725,58.133725,1.156888
499,500,A,509,510,510,511,0.378752,67.743619,-112.256381,125.693674
500,501,A,510,511,511,512,0.029032,88.336340,91.663660,92.562648
501,502,A,511,512,512,513,0.134623,82.263192,-82.263192,-74.033493
502,503,A,512,513,513,514,0.612270,52.246205,52.246205,-6.204844
503,504,A,513,514,514,515,0.148506,81.459659,-98.540341,116.280957
504,505,A,514,515,515,516,0.267391,74.490937,-105.509063,141.506665
505,506,A,515,516,516,517,0.262900,74.757780,105.242220,107.125664
506,507,A,516,517,517,518,0.189444,79.079655,100.920345,130.744622
507,508,A,517,518,518,519,0.143912,81.725720,98.274280,-121.312873
508,509,A,518,519,519,520,0.016047,89.080537,89.080537,-82.456480
509,510,A,519,520,520,521,0.127732,82.661421,97.338579,-128.763981
510,511,A,520,521,521,522,0.232395,76.561887,103.438113,140.599797
511,512,A,521,522,522,523,0.039110,87.758564,92.241436,178.674335
512,513,A,522,523,523,524,0.054130,86.897080,93.102920,-114.156260
513,514,A,523,524,524,525,0.207849,78.003671,101.996329,176.979903
514,515,A,524,525,525,526,0.110052,83.681660,96.318340,-142.460414
515,516,A,525,526,526,527,0.147303,81.529355,98.470645,-121.750790
516,517,A,526,527,527,528,0.098465,84.349227,95.650773,-112.996317
517,518,A,527,528,528,529,0.166679,80.405208,99.594792,-142.552729
518,519,A,528,529,529,530,0.075115,85.692197,94.307803,-119.865777
519,520,A,529,530,530,531,0.234334,76.447623,103.552377,-150.136890
520,521,A,530,531,531,532,0.036201,87.925379,92.074621,-102.650760
521,522,A,531,532,532,533,0.095205,84.536901,95.463099,-130.036217
522,523,A,532,533,533,534,0.083031,85.237183,94.762817,-106.717938
523,524,A,533,534,534,535,0.177211,79.792663,100.207337,-155.847829
524,525,A,534,535,535,536,0.019143,88.903104,88.903104,-86.049635
525,526,A,535,536,536,537,0.030267,88.265559,91.734441,126.872489
526,527,A,536,537,537,538,0.035141,87.986182,92.013818,-110.553476
527,528,A,537,538,538,539,0.167473,80.359089,99.640911,-158.029005
528,529,A,538,539,539,540,0.030421,88.256727,91.743273,-96.825068
529,530,A,539,540,540,541,0.249980,75.523669,104.476331,-176.803218
530,531,A,540,541,541,542,0.045550,87.389278,87.389278,53.826561
531,532,A,541,542,542,543,0.314918,71.644112,108.355888,113.001685
532,533,A,542,543,543,544,0.392303,66.902147,113.097853,113.511369
533,534,A,543,544,544,545,0.977378,12.210228,-167.789772,-177.802934
534,535,A,544,545,545,546,0.442235,63.753436,116.246564,125.047227
535,536,A,545,546,546,547,0.688769,46.467263,-133.532737,147.666516
536,537,A,546,547,547,548,0.222615,77.137354,77.137354,-44.567967
537,538,A,547,548,548,549,0.268413,74.430143,105.569857,124.354665
538,539,A,548,549,549,550,0.296163,72.772725,107.227275,114.492286
539,540,A,549,550,550,551,0.491794,60.541425,-119.458575,130.234665
540,541,A,550,551,551,552,0.355392,69.182548,-110.817452,134.026934
541,542,A,551,552,552,553,0.072185,85.860528,94.139472,103.454026
542,543,A,552,553,553,554,0.168892,80.276594,80.276594,72.725462
543,544,A,553,554,554,555,0.213739,77.658423,77.658423,77.156600
544,545,A,554,555,555,556,0.287957,73.264288,106.735712,119.125840
545,546,A,555,556,556,557,0.447097,63.442449,-116.557551,-163.574895
546,547,A,556,557,557,558,0.128273,82.630203,-97.369797,112.678518
547,548,A,557,558,558,559,0.414172,65.532820,114.467180,119.767511
548,549,A,558,559,559,560,0.315073,71.634787,-108.365213,-122.606021
549,550,A,559,560,560,561,0.331064,70.666625,109.333375,147.820367
550,551,A,560,561,561,562,0.793767,37.461089,-142.538911,-174.717897
551,552,A,561,562,562,563,0.144654,81.682742,98.317258,99.587721
552,553,A,562,563,563,564,0.426152,64.776375,115.223625,127.558758
553,554,A,563,564,564,565,0.081385,85.331800,85.331800,83.752715
554,555,A,564,565,565,566,0.884952,27.754421,-152.245579,-177.438595
555,556,A,565,566,566,567,0.201037,78.402408,-78.402408,44.485942
556,557,A,566,567,567,568,0.038614,87.787050,92.212950,102.457138
557,558,A,567,568,568,569,0.112190,83.558421,-83.558421,68.454805
558,559,A,568,569,569,570,0.047525,87.275999,-92.724001,-103.440168
559,560,A,569,570,570,571,0.397008,66.608764,-113.391236,148.328199
560,561,A,570,571,571,572,0.142296,81.819257,-98.180743,106.358937
561,562,A,571,572,572,573,0.065743,86.230487,-86.230487,74.153338
562,563,A,572,573,573,574,0.008620,89.506094,-90.493906,93.488419
563,564,A,573,574,574,575,0.225096,76.991475,-76.991475,-29.237254
564,565,A,574,575,575,576,0.258119,75.041536,104.958464,-141.024088
565,566,A,575,576,576,577,0.283621,73.523575,106.476425,118.881811
566,567,A,576,577,577,578,0.373522,68.067018,68.067018,61.357736
567,568,A,577,578,578,579,0.820674,34.847702,-145.152298,-170.658932
568,569,A,578,579,579,580,0.334355,70.466653,70.466653,61.134865
569,570,A,579,580,580,581,0.309723,71.957476,108.042524,108.620194
570,571,A,580,581,581,582,0.884087,27.860608,-152.139392,164.037396
571,572,A,581,582,582,583,0.034674,88.012919,-91.987081,140.551504
572,573,A,582,583,583,584,0.186835,79.231837,-100.768163,126.185985
573,574,A,583,584,584,585,0.389242,67.092668,-112.907332,136.124826
574,575,A,584,585,585,586,0.599857,53.140323,-126.859677,166.141992
575,576,A,585,586,586,587,0.715897,44.283240,-135.716760,170.202043
576,577,A,586,587,587,588,0.648364,49.581663,-130.418337,141.289889
577,578,A,587,588,588,589,0.015587,89.106879,-90.893121,91.436498
578,579,A,588,589,589,590,0.232707,76.543507,103.456493,155.122213
579,580,A,589,590,590,591,0.039219,87.752338,87.752338,-82.768524
580,581,A,590,591,591,592,0.138258,82.052920,82.052920,2.135439
581,582,A,591,592,592,593,0.153276,81.183158,-81.183158,-68.182264
582,583,A,592,593,593,594,0.191012,78.988128,-101.011872,126.165133
583,584,A,593,594,594,595,0.281476,73.651668,-106.348332,166.586381
584,585,A,594,595,595,596,0.556609,56.178385,-123.821615,151.268653
585,586,A,595,596,596,597,0.596783,53.360169,-126.639831,155.833773
586,587,A,596,597,597,598,0.715871,44.285381,-135.714619,-162.404271
587,588,A,597,598,598,599,0.777677,38.951664,-141.048336,165.690822
588,589,A,598,599,599,600,0.689992,46.370550,-133.629450,175.395622
589,590,A,599,600,600,601,0.103883,84.037195,-84.037195,-41.929575
590,591,A,600,601,601,602,0.015422,89.116332,-90.883668,97.124822
591,592,A,601,602,602,603,0.199271,78.505678,-101.494322,114.516677
592,593,A,602,603,603,604,0.303048,72.359213,72.359213,42.013553
593,594,A,603,604,604,605,0.003473,89.801031,-89.801031,-88.009609
594,595,A,604,605,605,606,0.158787,80.863496,-99.136504,-104.076004
595,596,A,605,606,606,607,0.029015,88.337337,91.662663,96.040422
596,597,A,606,607,607,608,0.334193,70.476498,109.523502,110.641204
597,598,A,607,608,608,609,0.203721,78.245347,101.754653,-170.349292
598,599,A,608,609,609,610,0.127609,82.668530,97.331470,153.126604
599,600,A,609,610,610,611,0.214215,77.630530,77.630530,4.989023
600,601,A,610,611,611,612,0.443259,63.688015,116.311985,118.958270
601,602,A,611,612,612,613,0.077657,85.546113,-85.546113,43.098090
602,603,A,612,613,613,614,0.167746,80.343210,-80.343210,27.385629
603,604,A,613,614,614,615,0.357742,69.038393,-110.961607,122.207476
604,605,A,614,615,615,616,0.078918,85.473643,-85.473643,-61.072626
605,606,A,615,616,616,617,0.466756,62.176080,-62.176080,-13.184498
606,607,A,616,617,617,618,0.965358,15.125236,-164.874764,-175.366112
607,608,A,617,618,618,619,0.229151,76.752923,-76.752923,12.389895
608,609,A,618,619,619,620,0.432135,64.396889,115.603111,120.035010
609,610,A,619,620,620,621,0.729245,43.176871,-136.823129,169.949357
611,612,B,8,9,9,10,0.816269,35.286979,-144.713021,173.107799
612,613,B,9,10,10,11,0.322654,71.176521,108.823479,112.082389
613,614,B,10,11,11,12,0.262622,74.774288,-105.225712,122.474904
614,615,B,11,12,12,13,0.399119,66.476883,-113.523117,165.251713
615,616,B,12,13,13,14,0.448347,63.362323,-116.637677,155.508308
616,617,B,13,14,14,15,0.567094,55.452184,-124.547816,147.034305
617,618,B,14,15,15,16,0.309382,71.978023,108.021977,115.173554
618,619,B,15,16,16,17,0.561092,55.868629,-124.131371,167.404185
619,620,B,16,17,17,18,0.046685,87.324157,-87.324157,76.577964
620,621,B,17,18,18,19,0.690636,46.319539,-133.680461,157.891007
621,622,B,18,19,19,20,0.746669,41.697331,138.302669,144.187875
622,623,B,19,20,20,21,0.514509,59.035381,120.964619,128.446322
623,624,B,20,21,21,22,0.179294,79.671369,100.328631,131.789346
624,625,B,21,22,22,23,0.092110,84.715019,95.284981,100.916436
625,626,B,22,23,23,24,0.281468,73.652163,-106.347837,116.379471
626,627,B,23,24,24,25,0.010616,89.391748,-90.608252,92.091028
627,628,B,24,25,25,26,0.083812,85.192265,-94.807735,-102.201305
628,629,B,25,26,26,27,0.026398,88.487314,-88.487314,84.189811
629,630,B,26,27,27,28,0.440679,63.852776,-116.147224,168.179402
630,631,B,27,28,28,29,0.252419,75.379278,-75.379278,17.285094
631,632,B,28,29,29,30,0.797756,37.083667,-142.916333,-158.960162
632,633,B,29,30,30,31,0.542452,57.149309,-122.850691,145.554749
633,634,B,30,31,31,32,0.528538,58.093247,-121.906753,150.612160
634,635,B,31,32,32,33,0.357612,69.046407,-110.953593,147.251284
635,636,B,32,33,33,34,0.606111,52.691143,-127.308857,161.553156
636,637,B,33,34,34,35,0.368026,68.406045,-111.593955,142.563716
637,638,B,34,35,35,36,0.651551,49.341342,-130.658658,145.599954
638,639,B,35,36,36,37,0.217713,77.425259,-102.574741,110.687405
639,640,B,36,37,37,38,0.331818,70.620854,109.379146,150.762670
640,641,B,37,38,38,39,0.158105,80.903090,99.096910,119.304552
641,642,B,38,39,39,40,0.251004,75.463074,75.463074,74.401101
642,643,B,39,40,40,41,0.841365,32.715480,-147.284520,164.139548
643,644,B,40,41,41,42,0.341048,70.059257,-70.059257,-47.296521
644,645,B,41,42,42,43,0.135518,82.211402,97.788598,109.402757
645,646,B,42,43,43,44,0.414416,65.517446,-114.482554,-167.827072
646,647,B,43,44,44,45,0.241274,76.038253,103.961747,-157.742676
647,648,B,44,45,45,46,0.252920,75.349603,104.650397,-169.416905
648,649,B,45,46,46,47,0.203895,78.235187,101.764813,-172.271227
649,650,B,46,47,47,48,0.000266,89.984733,89.984733,-89.882239
650,651,B,47,48,48,49,0.126318,82.743136,97.256864,-135.390769
651,652,B,48,49,49,50,0.099923,84.265284,95.734716,-127.597782
652,653,B,49,50,50,51,0.107750,83.814358,96.185642,-117.113618
653,654,B,50,51,51,52,0.135480,82.213636,97.786364,-128.693890
654,655,B,51,52,52,53,0.051267,87.061320,92.938680,-103.096243
655,656,B,52,53,53,54,0.039959,87.709905,92.290095,146.020110
656,657,B,53,54,54,55,0.485127,60.979221,60.979221,18.602863
657,658,B,54,55,55,56,0.671979,47.780020,47.780020,-8.207090
658,659,B,55,56,56,57,0.111424,83.602586,96.397414,96.470295
659,660,B,56,57,57,58,0.440095,63.890071,116.109929,134.971185
660,661,B,57,58,58,59,0.019342,88.891742,88.891742,86.811711
661,662,B,58,59,59,60,0.021139,88.788754,-91.211246,92.900472
662,663,B,59,60,60,61,0.578380,54.663353,-125.336647,160.743073
663,664,B,60,61,61,62,0.936315,20.558362,-159.441638,169.925719
664,665,B,61,62,62,63,0.262801,74.763698,-105.236302,149.529302
665,666,B,62,63,63,64,0.903864,25.329288,154.670712,161.417809
666,667,B,63,64,64,65,0.484283,61.034461,-61.034461,-60.199768
667,668,B,64,65,65,66,0.028094,88.390118,91.609882,99.349193
668,669,B,65,66,66,67,0.451302,63.172740,-116.827260,-142.627774
669,670,B,66,67,67,68,0.528324,58.107700,58.107700,50.407148
670,671,B,67,68,68,69,0.125536,82.788314,-97.211686,-120.082796
671,672,B,68,69,69,70,0.486866,60.865219,60.865219,8.881749
672,673,B,69,70,70,71,0.095489,84.520546,84.520546,51.618442
673,674,B,70,71,71,72,0.141919,81.841115,-98.158885,-104.814827
674,675,B,71,72,72,73,0.069894,85.992081,94.007919,-139.023534
675,676,B,72,73,73,74,0.309245,71.986284,108.013716,111.632169
676,677,B,73,74,74,75,0.060553,86.528417,-86.528417,77.704029
677,678,B,74,75,75,76,0.928950,21.728338,-158.271662,-169.252232
678,679,B,75,76,76,77,0.364795,68.605022,-111.394978,120.973793
679,680,B,76,77,77,78,0.528411,58.101851,-121.898149,138.858478
680,681,B,77,78,78,79,0.219025,77.348234,-102.651766,157.099107
681,682,B,78,79,79,80,0.172333,80.076517,-99.923483,-103.009428
682,683,B,79,80,80,81,0.649967,49.460911,-130.539089,169.154364
683,684,B,80,81,81,82,0.026049,88.507309,-91.492691,95.745555
684,685,B,81,82,82,83,0.922342,22.729058,-157.270942,-166.623753
685,686,B,82,83,83,84,0.257418,75.083102,-104.916898,121.138768
686,687,B,83,84,84,85,0.285389,73.417870,106.582130,170.161981
687,688,B,84,85,85,86,0.119863,83.115787,96.884213,106.472619
688,689,B,85,86,86,87,0.559464,55.981275,55.981275,45.566295
689,690,B,86,87,87,88,0.351439,69.424617,-110.575383,120.535563
690,691,B,87,88,88,89,0.185430,79.313782,-79.313782,34.697100
691,692,B,88,89,89,90,0.051929,87.023360,-87.023360,77.964415
692,693,B,89,90,90,91,0.244672,75.837537,104.162463,110.004216
693,694,B,90,91,91,92,0.410532,65.761736,114.238264,129.462744
694,695,B,91,92,92,93,0.132696,82.374569,97.625431,101.260134
695,696,B,92,93,93,94,0.265225,74.619697,105.380303,142.931387
696,697,B,93,94,94,95,0.212068,77.756445,102.243555,125.869813
697,698,B,94,95,95,96,0.482244,61.167954,-118.832046,149.381294
698,699,B,95,96,96,97,0.235401,76.384727,-103.615273,126.062811
699,700,B,96,97,97,98,0.187532,79.191191,-100.808809,119.425932
700,701,B,97,98,98,99,0.275987,73.979176,-106.020824,133.175412
701,702,B,98,99,99,100,0.511412,59.242077,-120.757923,133.732932
702,703,B,99,100,100,101,0.626384,51.216144,-128.783856,-159.832810
703,704,B,100,101,101,102,0.210755,77.833405,-77.833405,-60.524579
704,705,B,101,102,102,103,0.307720,72.078149,-72.078149,35.394750
705,706,B,102,103,103,104,0.056666,86.751553,-86.751553,-34.726411
706,707,B,103,104,104,105,0.110474,83.657386,-96.342614,114.708771
707,708,B,104,105,105,106,0.725931,43.453688,-136.546312,170.736920
708,709,B,105,106,106,107,0.024275,88.609023,-88.609023,85.774634
709,710,B,106,107,107,108,0.353851,69.276945,-110.723055,125.123682
710,711,B,107,108,108,109,0.082212,85.284270,94.715730,-108.814374
711,712,B,108,109,109,110,0.750302,41.383486,138.616514,141.021986
712,713,B,109,110,110,111,0.016769,89.039157,90.960843,-92.187688
713,714,B,110,111,111,112,0.032715,88.125241,88.125241,87.522526
714,715,B,111,112,112,113,0.423563,64.940261,-115.059739,126.195099
715,716,B,112,113,113,114,0.220340,77.270976,-102.729024,-140.119359
716,717,B,113,114,114,115,0.224038,77.053670,-102.946330,109.218530
717,718,B,114,115,115,116,0.014073,89.193655,89.193655,88.837782
718,719,B,115,116,116,117,0.130859,82.480746,97.519254,152.867194
719,720,B,116,117,117,118,0.102901,84.093727,95.906273,-115.038943
720,721,B,117,118,118,119,0.207630,78.016519,101.983481,-126.364922
721,722,B,118,119,119,120,0.175249,79.906833,100.093167,-151.548461
722,723,B,119,120,120,121,0.139559,81.977680,98.022320,-176.481245
723,724,B,120,121,121,122,0.099222,84.305607,95.694393,-130.609488
724,725,B,121,122,122,123,0.111642,83.590027,96.409973,-121.385278
725,726,B,122,123,123,124,0.212745,77.716711,102.283289,-144.993606
726,727,B,123,124,124,125,0.314852,71.648130,108.351870,159.087972
727,728,B,124,125,125,126,0.024683,88.585642,91.414358,92.402523
728,729,B,125,126,126,127,0.094959,84.551021,-84.551021,78.823474
729,730,B,126,127,127,128,0.501528,59.898887,120.101113,120.418805
730,731,B,127,128,128,129,0.852143,31.554446,-148.445554,160.629025
731,732,B,128,129,129,130,0.108061,83.796467,-83.796467,64.035426
732,733,B,129,130,130,131,0.594174,53.546238,-126.453762,145.287264
733,734,B,130,131,131,132,0.625990,51.245093,-128.754907,-177.155955
734,735,B,131,132,132,133,0.095842,84.500218,84.500218,-77.934249
735,736,B,132,133,133,134,0.240590,76.078626,103.921374,107.225129
736,737,B,133,134,134,135,0.107808,83.811044,83.811044,79.479048
737,738,B,134,135,135,136,0.284625,73.463557,106.536443,138.601967
738,739,B,135,136,136,137,0.027394,88.430243,88.430243,87.781555
739,740,B,136,137,137,138,0.129715,82.546853,-97.453147,135.563096
740,741,B,137,138,138,139,0.162262,80.661771,-80.661771,-75.589131
741,742,B,138,139,139,140,0.375932,67.918083,67.918083,-48.482934
742,743,B,139,140,140,141,0.730620,43.061603,-136.938397,-177.917310
743,744,B,140,141,141,142,0.006328,89.637404,-89.637404,88.076725
744,745,B,141,142,142,143,0.097167,84.423933,-84.423933,17.397748
745,746,B,142,143,143,144,0.172659,80.057536,-99.942464,145.697782
746,747,B,143,144,144,145,0.559575,55.973583,124.026417,129.042232
747,748,B,144,145,145,146,0.283035,73.558603,-73.558603,-35.794600
748,749,B,145,146,146,147,0.209122,77.929095,102.070905,-150.547978
749,750,B,146,147,147,148,0.081170,85.344192,94.655808,-120.844852
750,751,B,147,148,148,149,0.136811,82.136654,97.863346,129.839545
751,752,B,148,149,149,150,0.021367,88.775643,91.224357,177.698880
752,753,B,149,150,150,151,0.239706,76.130782,103.869218,179.578768
753,754,B,150,151,151,152,0.357984,69.023584,110.976416,157.204614
754,755,B,151,152,152,153,0.009439,89.459201,90.540799,91.794436
755,756,B,152,153,153,154,0.141597,81.859741,-81.859741,52.280898
756,757,B,153,154,154,155,0.069479,86.015927,-93.984073,-96.458352
757,758,B,154,155,155,156,0.515895,58.942724,58.942724,-34.879817
758,759,B,155,156,156,157,0.181136,79.564053,100.435947,142.112311
759,760,B,156,157,157,158,0.347164,69.686052,110.313948,131.026153
760,761,B,157,158,158,159,0.175435,79.896006,-79.896006,50.449342
761,762,B,158,159,159,160,0.169416,80.246133,80.246133,75.137866
762,763,B,159,160,160,161,0.175855,79.871599,-100.128401,125.979047
763,764,B,160,161,161,162,0.042073,87.588684,87.588684,80.283382
764,765,B,161,162,162,163,0.172787,80.050119,-99.949881,-114.365202
765,766,B,162,163,163,164,0.058435,86.650032,93.349968,-107.854220
766,767,B,163,164,164,165,0.030932,88.227428,88.227428,-83.989048
767,768,B,164,165,165,166,0.176439,79.837604,100.162396,-142.540904
768,769,B,165,166,166,167,0.240347,76.092951,103.907049,114.233450
769,770,B,166,167,167,168,0.392504,66.889631,66.889631,42.018610
770,771,B,167,168,168,169,0.282249,73.605532,-106.394468,124.222705
771,772,B,168,169,169,170,0.275882,73.985436,106.014564,164.851589
772,773,B,169,170,170,171,0.109839,83.693979,96.306021,-131.566817
773,774,B,170,171,171,172,0.202422,78.321371,101.678629,137.384472
774,775,B,171,172,172,173,0.003105,89.822115,89.822115,-88.901120
775,776,B,172,173,173,174,0.143094,81.773052,81.773052,41.579634
776,777,B,173,174,174,175,0.367140,68.460637,68.460637,66.902396
777,778,B,174,175,175,176,0.366849,68.478558,111.521442,141.847855
778,779,B,175,176,176,177,0.039332,87.745841,92.254159,176.738768
779,780,B,176,177,177,178,0.570641,55.205029,55.205029,21.847139
780,781,B,177,178,178,179,0.265345,74.612522,-105.387478,126.508906
781,782,B,178,179,179,180,0.229928,76.707151,103.292849,161.427749
782,783,B,179,180,180,181,0.124627,82.840778,82.840778,80.697680
783,784,B,180,181,181,182,0.149332,81.411780,98.588220,-156.443371
784,785,B,181,182,182,183,0.008599,89.507300,90.492700,-91.538239
785,786,B,182,183,183,184,0.104715,83.989236,96.010764,-148.247287
786,787,B,183,184,184,185,0.089898,84.842274,95.157726,-126.921307
787,788,B,184,185,185,186,0.213008,77.701285,102.298715,-174.432289
788,789,B,185,186,186,187,0.054110,86.898205,93.101795,-162.135235
789,790,B,186,187,187,188,0.193532,78.841016,101.158984,-136.449224
790,791,B,187,188,188,189,0.135435,82.216250,97.783750,-157.249494
791,792,B,188,189,189,190,0.304767,72.255883,107.744117,-174.408860
792,793,B,189,190,190,191,0.153872,81.148610,81.148610,39.697797
793,794,B,190,191,191,192,0.097882,84.382779,95.617221,-132.659669
794,795,B,191,192,192,193,0.052723,86.977765,86.977765,84.765888
795,796,B,192,193,193,194,0.008818,89.494774,-90.505226,91.021346
796,797,B,193,194,194,195,0.346472,69.728325,110.271675,145.105564
797,798,B,194,195,195,196,0.021714,88.755804,88.755804,86.077471
798,799,B,195,196,196,197,0.198970,78.523240,-101.476760,151.970592
799,800,B,196,197,197,198,0.204353,78.208364,78.208364,71.779027
800,801,B,197,198,198,199,0.138689,82.027999,82.027999,80.950532
801,802,B,198,199,199,200,0.230847,76.653082,103.346918,-154.058757
802,803,B,199,200,200,201,0.042694,87.553064,87.553064,-75.732678
803,804,B,200,201,201,202,0.223782,77.068755,102.931245,178.964479
804,805,B,201,202,202,203,0.099294,84.301471,95.698529,178.684260
805,806,B,202,203,203,204,0.028140,88.387509,88.387509,-83.861442
806,807,B,203,204,204,205,0.370794,68.235436,111.764564,-166.569460
807,808,B,204,205,205,206,0.270494,74.306343,105.693657,153.776665
808,809,B,205,206,206,207,0.071764,85.884674,94.115326,95.575253
809,810,B,206,207,207,208,0.372319,68.141307,111.858693,112.554132
810,811,B,207,208,208,209,0.925903,22.195136,-157.804864,177.775858
811,812,B,208,209,209,210,0.183994,79.397491,100.602509,141.728829
812,813,B,209,210,210,211,0.600872,53.067643,53.067643,-13.155115
813,814,B,210,211,211,212,0.276176,73.967893,106.032107,-144.101655
814,815,B,211,212,212,213,0.645030,49.832070,49.832070,-7.618177
815,816,B,212,213,213,214,0.294390,72.879027,107.120973,120.352137
816,817,B,213,214,214,215,0.116561,83.306314,96.693686,105.736434
817,818,B,214,215,215,216,0.244776,75.831416,-104.168584,115.720207
818,819,B,215,216,216,217,0.106557,83.883139,83.883139,82.953917
819,820,B,216,217,217,218,0.151454,81.288806,-98.711194,140.293955
820,821,B,217,218,218,219,0.163829,80.570792,99.429208,135.302910
821,822,B,218,219,219,220,0.261508,74.840429,-105.159571,-136.013078
822,823,B,219,220,220,221,0.020073,88.849807,91.150193,-112.297384
823,824,B,220,221,221,222,0.160531,80.762276,99.237724,-126.156412
824,825,B,221,222,222,223,0.119369,83.144325,96.855675,-145.234198
825,826,B,222,223,223,224,0.132735,82.372342,97.627658,-152.672403
826,827,B,223,224,224,225,0.138399,82.044803,82.044803,60.542667
827,828,B,224,225,225,226,0.051326,87.057951,-92.942049,97.637194
828,829,B,225,226,226,227,0.246902,75.705751,104.294249,122.352053
829,830,B,226,227,227,228,0.156950,80.970112,80.970112,73.719098
830,831,B,227,228,228,229,0.156023,81.023869,-98.976131,-123.881457
831,832,B,228,229,229,230,0.080540,85.380370,-85.380370,-77.799234
832,833,B,229,230,230,231,0.201795,78.358033,101.641967,101.783040
833,834,B,230,231,231,232,0.199352,78.500935,101.499065,-176.396218
834,835,B,231,232,232,233,0.179809,79.641382,100.358618,-134.922902
835,836,B,232,233,233,234,0.141136,81.886398,98.113602,-143.654854
836,837,B,233,234,234,235,0.109472,83.715111,96.284889,-137.989650
837,838,B,234,235,235,236,0.181035,79.569939,100.430061,169.442562
838,839,B,235,236,236,237,0.063366,86.366972,93.633028,140.890145
839,840,B,236,237,237,238,0.056933,86.736189,93.263811,-153.747578
840,841,B,237,238,238,239,0.122259,82.977499,97.022501,-116.272549
841,842,B,238,239,239,240,0.198743,78.536531,101.463469,-138.845176
842,843,B,239,240,240,241,0.171936,80.099575,99.900425,-152.421143
843,844,B,240,241,241,242,0.070028,85.984379,94.015621,-140.260430
844,845,B,241,242,242,243,0.158858,80.859387,99.140613,-136.697506
845,846,B,242,243,243,244,0.121943,82.995739,97.004261,108.719025
846,847,B,243,244,244,245,0.538751,57.401374,57.401374,23.222529
847,848,B,244,245,245,246,0.101271,84.187644,-84.187644,-54.243985
848,849,B,245,246,246,247,0.498508,60.098635,-119.901365,159.219695
850,851,C,2,3,3,4,0.462971,62.420985,-117.579015,169.483088
851,852,C,3,4,4,5,0.135702,82.200772,-82.200772,-62.974706
852,853,C,4,5,5,6,0.199113,78.514887,101.485113,-144.796895
853,854,C,5,6,6,7,0.151610,81.279747,98.720253,-134.174048
854,855,C,6,7,7,8,0.114874,83.403621,96.596379,-124.919899
855,856,C,7,8,8,9,0.160219,80.780418,99.219582,-135.382909
856,857,C,8,9,9,10,0.066861,86.166298,93.833702,-103.834495
857,858,C,9,10,10,11,0.169865,80.220055,99.779945,-155.949345
858,859,C,10,11,11,12,0.157903,80.914815,99.085185,-160.255692
859,860,C,11,12,12,13,0.098990,84.319008,95.680992,-121.538656
860,861,C,12,13,13,14,0.008039,89.539383,90.460617,-93.319605
861,862,C,13,14,14,15,0.121555,83.018140,96.981860,-116.595104
862,863,C,14,15,15,16,0.010888,89.376179,89.376179,-87.458638
863,864,C,15,16,16,17,0.106148,83.906681,83.906681,-44.487312
864,865,C,16,17,17,18,0.278907,73.804990,106.195010,150.949167
865,866,C,17,18,18,19,0.202387,78.323450,78.323450,65.196326
866,867,C,18,19,19,20,0.117918,83.228057,-83.228057,-76.994692
867,868,C,19,20,20,21,0.106386,83.892957,83.892957,80.160722
868,869,C,20,21,21,22,0.136758,82.139691,-82.139691,1.601829
869,870,C,21,22,22,23,0.215634,77.547302,-102.452698,-149.341895
870,871,C,22,23,23,24,0.144740,81.677770,-98.322230,110.895433
871,872,C,23,24,24,25,0.176842,79.814120,-79.814120,-10.560723
872,873,C,24,25,25,26,0.305498,72.211855,-72.211855,-26.825907
873,874,C,25,26,26,27,0.459212,62.663719,-62.663719,-61.335480
874,875,C,26,27,27,28,0.206177,78.101584,101.898416,-159.769755
875,876,C,27,28,28,29,0.149445,81.405256,98.594744,122.375405
876,877,C,28,29,29,30,0.530757,57.943403,57.943403,26.249253
877,878,C,29,30,30,31,0.082679,85.257451,-94.742549,128.158681
878,879,C,30,31,31,32,0.052886,86.968465,-93.031535,150.068089
879,880,C,31,32,32,33,0.014823,89.150701,-90.849299,-94.324662
880,881,C,32,33,33,34,0.811580,35.749410,-144.250590,179.406840
881,882,C,33,34,34,35,0.043916,87.482998,92.517002,-102.023964
882,883,C,34,35,35,36,0.206856,78.061843,101.938157,-138.036748
883,884,C,35,36,36,37,0.028383,88.373570,91.626430,-95.476215
884,885,C,36,37,37,38,0.272210,74.204179,105.795821,-171.838029
885,886,C,37,38,38,39,0.088218,84.938928,95.061072,115.111264
886,887,C,38,39,39,40,0.008505,89.512703,89.512703,-84.536757
887,888,C,39,40,40,41,0.099293,84.301545,95.698455,-117.675733
888,889,C,40,41,41,42,0.215299,77.566944,102.433056,161.390498
889,890,C,41,42,42,43,0.125579,82.785780,97.214220,-167.643559
890,891,C,42,43,43,44,0.018409,88.945184,88.945184,-84.093830
891,892,C,43,44,44,45,0.075385,85.676647,94.323353,-118.427199
892,893,C,44,45,45,46,0.103527,84.057711,95.942289,-158.891801
893,894,C,45,46,46,47,0.065062,86.269603,93.730397,-101.501342
894,895,C,46,47,47,48,0.159965,80.795117,99.204883,-157.498941
895,896,C,47,48,48,49,0.084990,85.124561,94.875439,-115.844374
896,897,C,48,49,49,50,0.115279,83.380301,96.619699,-118.373775
897,898,C,49,50,50,51,0.075735,85.656544,94.343456,-107.085112
898,899,C,50,51,51,52,0.187020,79.221090,100.778910,-155.102280
899,900,C,51,52,52,53,0.080060,85.407978,94.592022,-141.045644
900,901,C,52,53,53,54,0.171348,80.133813,99.866187,-177.037598
901,902,C,53,54,54,55,0.009577,89.451263,90.548737,94.621559
902,903,C,54,55,55,56,0.027820,88.405842,91.594158,-96.606676
903,904,C,55,56,56,57,0.215528,77.553471,102.446529,-133.680365
904,905,C,56,57,57,58,0.171959,80.098256,99.901744,-152.090655
905,906,C,57,58,58,59,0.061329,86.483884,93.516116,-137.944668
906,907,C,58,59,59,60,0.189699,79.064767,100.935233,164.483329
907,908,C,59,60,60,61,0.109234,83.728825,96.271175,-141.300384
908,909,C,60,61,61,62,0.056187,86.779021,86.779021,76.302678
909,910,C,61,62,62,63,0.619236,51.739635,51.739635,18.041319
910,911,C,62,63,63,64,0.117238,83.267278,-83.267278,-1.272077
911,912,C,63,64,64,65,0.100116,84.254146,95.745854,164.864251
912,913,C,64,65,65,66,0.434739,64.231304,-115.768696,-143.626506
913,914,C,65,66,66,67,0.058523,86.644982,-93.355018,-97.511288
914,915,C,66,67,67,68,0.057952,86.677733,93.322267,-108.826392
915,916,C,67,68,68,69,0.331927,70.614202,109.385798,164.939211
916,917,C,68,69,69,70,0.021143,88.788525,91.211475,-94.245711
917,918,C,69,70,70,71,0.288909,73.207320,106.792680,161.187431
918,919,C,70,71,71,72,0.021326,88.778026,88.778026,-82.864260
919,920,C,71,72,72,73,0.147349,81.526686,98.473314,-135.310185
920,921,C,72,73,73,74,0.182845,79.464507,100.535493,-128.125422
921,922,C,73,74,74,75,0.091035,84.776832,95.223168,-165.099390
922,923,C,74,75,75,76,0.139425,81.985432,98.014568,-166.212927
923,924,C,75,76,76,77,0.173711,79.996342,100.003658,159.515917
924,925,C,76,77,77,78,0.377448,67.824311,112.175689,136.179249
925,926,C,77,78,78,79,0.157261,80.952024,-99.047976,112.006395
926,927,C,78,79,79,80,0.121185,83.039531,-83.039531,-58.594866
927,928,C,79,80,80,81,0.093994,84.606585,-84.606585,-38.765443
928,929,C,80,81,81,82,0.207859,78.003061,101.996939,-163.533151
929,930,C,81,82,82,83,0.138431,82.042916,97.957084,-134.580520
930,931,C,82,83,83,84,0.091751,84.735626,95.264374,-175.949589
931,932,C,83,84,84,85,0.025628,88.531459,91.468541,-95.763898
932,933,C,84,85,85,86,0.130459,82.503907,97.496093,-125.694561
933,934,C,85,86,86,87,0.134310,82.281251,97.718749,-136.954365
934,935,C,86,87,87,88,0.056759,86.746224,93.253776,-105.061798
935,936,C,87,88,88,89,0.141576,81.860925,98.139075,-124.083172
936,937,C,88,89,89,90,0.129048,82.585439,97.414561,-115.435911
937,938,C,89,90,90,91,0.292222,73.008995,106.991005,173.102404
938,939,C,90,91,91,92,0.152117,81.250373,81.250373,-50.965834
939,940,C,91,92,92,93,0.008856,89.492558,89.492558,86.812248
940,941,C,92,93,93,94,0.142222,81.823567,98.176433,-127.128507
941,942,C,93,94,94,95,0.097479,84.405965,95.594035,-125.487347
942,943,C,94,95,95,96,0.156980,80.968373,99.031627,-136.573619
943,944,C,95,96,96,97,0.034337,88.032246,88.032246,-84.510988
944,945,C,96,97,97,98,0.109706,83.701660,96.298340,-107.077032
945,946,C,97,98,98,99,0.205943,78.115290,101.884710,-155.882996
946,947,C,98,99,99,100,0.011619,89.334293,90.665707,-92.760405
947,948,C,99,100,100,101,0.044147,87.469753,92.530247,-100.569407
948,949,C,100,101,101,102,0.245783,75.771873,104.228127,174.676445
949,950,C,101,102,102,103,0.156193,81.014002,98.985998,-140.547141
950,951,C,102,103,103,104,0.130254,82.515742,97.484258,-130.390215
951,952,C,103,104,104,105,0.213904,77.648766,102.351234,-161.038077
952,953,C,104,105,105,106,0.096217,84.478648,95.521352,-151.604378
953,954,C,105,106,106,107,0.190154,79.038245,100.961755,152.924618
954,955,C,106,107,107,108,0.024084,88.619949,91.380051,-95.827147
955,956,C,107,108,108,109,0.261278,74.854100,105.145900,-155.193681
956,957,C,108,109,109,110,0.376965,67.854166,112.145834,149.228764
957,958,C,109,110,110,111,0.067814,86.111558,86.111558,81.618465
958,959,C,110,111,111,112,0.013668,89.216864,-89.216864,-88.032176
959,960,C,111,112,112,113,0.305589,72.206410,-107.793590,-166.307213
960,961,C,112,113,113,114,0.020424,88.829720,-91.170280,-95.774987
961,962,C,113,114,114,115,0.023567,88.649599,88.649599,85.220327
962,963,C,114,115,115,116,0.261632,74.833079,-74.833079,30.252861
963,964,C,115,116,116,117,0.177115,79.798216,100.201784,-137.183539
964,965,C,116,117,117,118,0.253269,75.328982,104.671018,161.332917
965,966,C,117,118,118,119,0.020576,88.821009,91.178991,126.355855
966,967,C,118,119,119,120,0.174548,79.947637,100.052363,-159.205309
967,968,C,119,120,120,121,0.000713,89.959151,90.040849,-90.227898
968,969,C,120,121,121,122,0.056965,86.734361,93.265639,-104.210793
969,970,C,121,122,122,123,0.196313,78.678588,101.321412,170.660691
970,971,C,122,123,123,124,0.045081,87.416181,92.583819,-97.756773
971,972,C,123,124,124,125,0.194423,78.788978,101.211022,-165.683807
972,973,C,124,125,125,126,0.186811,79.233257,100.766743,-144.935290
973,974,C,125,126,126,127,0.124304,82.859418,97.140582,-136.735187
974,975,C,126,127,127,128,0.114816,83.406985,96.593015,-134.867343
975,976,C,127,128,128,129,0.027047,88.450122,88.450122,-71.657222
976,977,C,128,129,129,130,0.132799,82.368657,97.631343,-146.712002
977,978,C,129,130,130,131,0.099103,84.312476,95.687524,-122.677893
978,979,C,130,131,131,132,0.067996,86.101113,93.898887,-119.859249
979,980,C,131,132,132,133,0.014227,89.184810,89.184810,-85.587318
980,981,C,132,133,133,134,0.123294,82.917747,97.082253,-140.648531
981,982,C,133,134,134,135,0.005126,89.706298,89.706298,-89.054184
982,983,C,134,135,135,136,0.204127,78.221576,101.778424,-150.704334
983,984,C,135,136,136,137,0.006449,89.630500,89.630500,-88.148976
984,985,C,136,137,137,138,0.117639,83.244133,96.755867,-154.341216
985,986,C,137,138,138,139,0.248996,75.581883,104.418117,126.962333
986,987,C,138,139,139,140,0.172889,80.044145,80.044145,71.796630
988,989,D,2,3,3,4,0.151194,81.303890,98.696110,105.202738
989,990,D,3,4,4,5,0.224634,77.018662,77.018662,75.687567
990,991,D,4,5,5,6,0.097027,84.431987,95.568013,-122.797449
991,992,D,5,6,6,7,0.079343,85.449185,94.550815,-130.879332
992,993,D,6,7,7,8,0.009190,89.473430,89.473430,81.914314
993,994,D,7,8,8,9,0.166694,80.404339,99.595661,-151.452887
994,995,D,8,9,9,10,0.048792,87.203327,92.796673,-101.945517
995,996,D,9,10,10,11,0.242614,75.959109,104.040891,-156.232698
996,997,D,10,11,11,12,0.045614,87.385598,92.614402,-108.648894
997,998,D,11,12,12,13,0.140506,81.922870,98.077130,-136.901889
998,999,D,12,13,13,14,0.144323,81.701934,98.298066,-111.099935
999,1000,D,13,14,14,15,0.179363,79.667333,100.332667,-154.798099
1000,1001,D,14,15,15,16,0.118128,83.215927,96.784073,-124.962859
1001,1002,D,15,16,16,17,0.052743,86.976670,93.023330,-118.936160
1002,1003,D,16,17,17,18,0.194716,78.771878,101.228122,-147.059147
1003,1004,D,17,18,18,19,0.096850,84.442210,95.557790,-121.281864
1004,1005,D,18,19,19,20,0.170833,80.163774,99.836226,-131.617971
1005,1006,D,19,20,20,21,0.163733,80.576357,99.423643,-156.631136
1006,1007,D,20,21,21,22,0.160694,80.752799,99.247201,-124.965764
1007,1008,D,21,22,22,23,0.216769,77.480685,102.519315,156.641656
1008,1009,D,22,23,23,24,0.117689,83.241233,96.758767,132.235769
1009,1010,D,23,24,24,25,0.089012,84.893254,95.106746,-111.929078
1010,1011,D,24,25,25,26,0.087003,85.008778,94.991222,-135.020125
1011,1012,D,25,26,26,27,0.233818,76.478032,103.521968,-179.605465
1012,1013,D,26,27,27,28,0.005468,89.686699,90.313301,-93.617570
1013,1014,D,27,28,28,29,0.002302,89.868110,89.868110,-82.784559
1014,1015,D,28,29,29,30,0.301745,72.437567,72.437567,-37.982011
1015,1016,D,29,30,30,31,0.030589,88.247131,91.752869,91.752889
1016,1017,D,30,31,31,32,0.162186,80.666189,-80.666189,13.708799
1017,1018,D,31,32,32,33,0.931069,21.397919,158.602081,170.765871
1018,1019,D,32,33,33,34,0.291428,73.056548,106.943452,-158.365374
1019,1020,D,33,34,34,35,0.046100,87.357701,92.642299,-102.062322
1020,1021,D,34,35,35,36,0.076132,85.633728,94.366272,-179.729116
1021,1022,D,35,36,36,37,0.063571,86.355195,93.644805,-101.989947
1022,1023,D,36,37,37,38,0.090599,84.801931,95.198069,-179.924945
1023,1024,D,37,38,38,39,0.138352,82.047522,97.952478,-153.975138
1024,1025,D,38,39,39,40,0.119877,83.115006,96.884994,-130.902828
1025,1026,D,39,40,40,41,0.158841,80.860386,99.139614,-128.251723
1026,1027,D,40,41,41,42,0.073513,85.784186,85.784186,-76.766340
1027,1028,D,41,42,42,43,0.070127,85.978747,94.021253,-111.443037
1028,1029,D,42,43,43,44,0.233398,76.502788,103.497212,-151.194453
1029,1030,D,43,44,44,45,0.073317,85.795446,85.795446,-69.581163
1030,1031,D,44,45,45,46,0.045307,87.403227,92.596773,-99.273173
1031,1032,D,45,46,46,47,0.152416,81.233034,98.766966,-134.576158
1032,1033,D,46,47,47,48,0.102885,84.094657,95.905343,-168.106868
1033,1034,D,47,48,48,49,0.007870,89.549064,89.549064,-88.314456
1034,1035,D,48,49,49,50,0.109920,83.689319,96.310681,-116.041902
1035,1036,D,49,50,50,51,0.116062,83.335091,96.664909,-118.848981
1036,1037,D,50,51,51,52,0.248287,75.623837,104.376163,150.503779
1037,1038,D,51,52,52,53,0.072943,85.816977,94.183023,126.195180
1038,1039,D,52,53,53,54,0.068890,86.049750,93.950250,-125.538611
1039,1040,D,53,54,54,55,0.133582,82.323367,97.676633,-125.428114
1040,1041,D,54,55,55,56,0.074405,85.732966,94.267034,-114.689754
1041,1042,D,55,56,56,57,0.176680,79.823581,100.176419,-136.325013
1042,1043,D,56,57,57,58,0.034287,88.035142,88.035142,-80.011367
1043,1044,D,57,58,58,59,0.297507,72.692081,72.692081,38.935162
1044,1045,D,58,59,59,60,0.340014,70.122302,-109.877698,139.917648
1045,1046,D,59,60,60,61,0.685832,46.698913,-133.301087,169.198146
1046,1047,D,60,61,61,62,0.064487,86.302586,93.697414,93.845030
1047,1048,D,61,62,62,63,0.201149,78.395856,101.604144,-152.725886
1048,1049,D,62,63,63,64,0.114056,83.450840,83.450840,-64.504135
1049,1050,D,63,64,64,65,0.232644,76.547237,103.452763,-167.584685
1050,1051,D,64,65,65,66,0.064473,86.303418,93.696582,-109.595815
1051,1052,D,65,66,66,67,0.112782,83.524293,96.475707,-144.235477
1052,1053,D,66,67,67,68,0.023731,88.640211,91.359789,-95.777355
1053,1054,D,67,68,68,69,0.117994,83.223630,96.776370,-112.882224
1054,1055,D,68,69,69,70,0.125999,82.761553,97.238447,-156.870735
1055,1056,D,69,70,70,71,0.115992,83.339140,96.660860,-122.282937
1056,1057,D,70,71,71,72,0.215189,77.573413,102.426587,-179.630534
1057,1058,D,71,72,72,73,0.104910,83.978001,96.021999,-145.353376
1058,1059,D,72,73,73,74,0.127467,82.676728,97.323272,-127.430585
1059,1060,D,73,74,74,75,0.108803,83.753702,96.246298,-118.182680
1060,1061,D,74,75,75,76,0.104354,84.010065,95.989935,-112.240885
1061,1062,D,75,76,76,77,0.045742,87.378281,92.621719,-103.637783
1062,1063,D,76,77,77,78,0.145504,81.633523,98.366477,-126.098696
1063,1064,D,77,78,78,79,0.143070,81.774457,98.225543,-161.426557
1064,1065,D,78,79,79,80,0.028272,88.379895,91.620105,-96.646905
1065,1066,D,79,80,80,81,0.162954,80.621626,99.378374,-149.946894
1066,1067,D,80,81,81,82,0.069026,86.041958,93.958042,-107.763725
1067,1068,D,81,82,82,83,0.133178,82.346703,97.653297,-165.394211
1068,1069,D,82,83,83,84,0.116474,83.311348,96.688652,-157.458766
1069,1070,D,83,84,84,85,0.061935,86.449119,93.550881,-114.521852
1070,1071,D,84,85,85,86,0.148731,81.446610,98.553390,-118.374485
1071,1072,D,85,86,86,87,0.203554,78.255154,101.744846,-147.805965
1072,1073,D,86,87,87,88,0.089464,84.867216,95.132784,163.208978
1073,1074,D,87,88,88,89,0.258440,75.022457,75.022457,-35.760729
1074,1075,D,88,89,89,90,0.245383,75.795553,75.795553,37.552144
1075,1076,D,89,90,90,91,0.290391,73.118619,-106.881381,-112.945245
1076,1077,D,90,91,91,92,0.240005,76.113137,103.886863,123.786562
1077,1078,D,91,92,92,93,0.165807,80.455856,80.455856,77.244909
1078,1079,D,92,93,93,94,0.016950,89.028816,89.028816,-86.215074
1079,1080,D,93,94,94,95,0.093014,84.662995,95.337005,-110.403679
1080,1081,D,94,95,95,96,0.155632,81.046545,98.953455,-149.887721
1081,1082,D,95,96,96,97,0.172601,80.060927,99.939073,-154.206786
1082,1083,D,96,97,97,98,0.043636,87.499021,92.500979,-103.357071
1083,1084,D,97,98,98,99,0.152946,81.202318,98.797682,-125.107266
1084,1085,D,98,99,99,100,0.134442,82.273629,97.726371,-126.980783
1085,1086,D,99,100,100,101,0.135135,82.233599,97.766401,-128.038414
1086,1087,D,100,101,101,102,0.268623,74.417657,105.582343,125.918118
1087,1088,D,101,102,102,103,0.104077,84.026001,84.026001,78.009064
